sl_atr,rr,hour,trades,total_r
0.5,0.5,0,40,-14.5
0.5,0.5,1,45,-25.5
0.5,0.5,2,65,-21.5
0.5,0.5,3,44,-12.5
0.5,0.5,4,71,-29.0
0.5,0.5,5,27,-10.5
0.5,0.5,6,52,-11.5
0.5,0.5,7,59,-11.0
0.5,0.5,8,57,-16.5
0.5,0.5,9,72,-16.5
0.5,0.5,10,56,-21.5
0.5,0.5,11,73,-29.5
0.5,0.5,12,50,-15.5
0.5,0.5,13,40,-14.5
0.5,0.5,14,74,-8.0
0.5,0.5,15,57,-24.0
0.5,0.5,16,73,-13.0
0.5,0.5,17,52,-14.5
0.5,0.5,18,54,-16.5
0.5,0.5,19,57,-21.0
0.5,0.5,20,74,-14.0
0.5,0.5,21,17,-6.5
0.5,0.5,22,33,-4.5
0.5,0.5,23,45,-10.5
0.5,0.75,0,40,-13.75
0.5,0.75,1,45,-31.0
0.5,0.75,2,65,-21.25
0.5,0.75,3,44,-14.25
0.5,0.75,4,71,-30.75
0.5,0.75,5,27,-9.5
0.5,0.75,6,52,-17.0
0.5,0.75,7,59,-13.5
0.5,0.75,8,57,-13.25
0.5,0.75,9,72,-23.0
0.5,0.75,10,56,-22.75
0.5,0.75,11,73,-32.75
0.5,0.75,12,50,-15.0
0.5,0.75,13,40,-12.0
0.5,0.75,14,74,-7.5
0.5,0.75,15,57,-29.0
0.5,0.75,16,73,-15.25
0.5,0.75,17,52,-17.0
0.5,0.75,18,54,-19.0
0.5,0.75,19,57,-27.25
0.5,0.75,20,74,-14.5
0.5,0.75,21,17,-4.75
0.5,0.75,22,33,-3.25
0.5,0.75,23,45,-8.25
0.5,1.0,0,40,-18.0
0.5,1.0,1,45,-31.0
0.5,1.0,2,65,-25.0
0.5,1.0,3,44,-16.0
0.5,1.0,4,71,-31.0
0.5,1.0,5,27,-11.0
0.5,1.0,6,52,-18.0
0.5,1.0,7,59,-17.0
0.5,1.0,8,57,-11.0
0.5,1.0,9,72,-24.0
0.5,1.0,10,56,-22.0
0.5,1.0,11,73,-29.0
0.5,1.0,12,50,-18.0
0.5,1.0,13,40,-14.0
0.5,1.0,14,74,-18.0
0.5,1.0,15,57,-25.0
0.5,1.0,16,73,-23.0
0.5,1.0,17,52,-16.0
0.5,1.0,18,54,-20.0
0.5,1.0,19,57,-33.0
0.5,1.0,20,74,-16.0
0.5,1.0,21,17,-3.0
0.5,1.0,22,33,-7.0
0.5,1.0,23,45,-11.0
0.5,1.25,0,40,-17.5
0.5,1.25,1,45,-31.5
0.5,1.25,2,65,-24.5
0.5,1.25,3,44,-21.5
0.5,1.25,4,71,-30.5
0.5,1.25,5,27,-13.5
0.5,1.25,6,52,-18.25
0.5,1.25,7,59,-23.0
0.5,1.25,8,57,-14.25
0.5,1.25,9,72,-27.0
0.5,1.25,10,56,-26.75
0.5,1.25,11,73,-30.25
0.5,1.25,12,50,-25.25
0.5,1.25,13,40,-13.0
0.5,1.25,14,74,-15.5
0.5,1.25,15,57,-32.25
0.5,1.25,16,73,-23.5
0.5,1.25,17,52,-13.75
0.5,1.25,18,54,-27.0
0.5,1.25,19,57,-30.0
0.5,1.25,20,74,-11.0
0.5,1.25,21,17,-1.25
0.5,1.25,22,33,-8.25
0.5,1.25,23,45,-13.5
0.5,1.5,0,40,-22.5
0.5,1.5,1,45,-35.0
0.5,1.5,2,65,-22.5
0.5,1.5,3,44,-26.5
0.5,1.5,4,71,-33.5
0.5,1.5,5,27,-14.5
0.5,1.5,6,52,-24.5
0.5,1.5,7,59,-26.5
0.5,1.5,8,57,-19.5
0.5,1.5,9,72,-34.5
0.5,1.5,10,56,-28.5
0.5,1.5,11,73,-38.0
0.5,1.5,12,50,-25.0
0.5,1.5,13,40,-10.0
0.5,1.5,14,74,-11.5
0.5,1.5,15,57,-34.5
0.5,1.5,16,73,-33.0
0.5,1.5,17,52,-19.5
0.5,1.5,18,54,-26.5
0.5,1.5,19,57,-32.0
0.5,1.5,20,74,-9.0
0.5,1.5,21,17,-4.5
0.5,1.5,22,33,-15.5
0.5,1.5,23,45,-12.5
0.5,2.0,0,40,-19.0
0.5,2.0,1,45,-36.0
0.5,2.0,2,65,-20.0
0.5,2.0,3,44,-23.0
0.5,2.0,4,71,-38.0
0.5,2.0,5,27,-12.0
0.5,2.0,6,52,-25.0
0.5,2.0,7,59,-32.0
0.5,2.0,8,57,-21.0
0.5,2.0,9,72,-36.0
0.5,2.0,10,56,-23.0
0.5,2.0,11,73,-37.0
0.5,2.0,12,50,-29.0
0.5,2.0,13,40,-16.0
0.5,2.0,14,74,-17.0
0.5,2.0,15,57,-36.0
0.5,2.0,16,73,-31.0
0.5,2.0,17,52,-22.0
0.5,2.0,18,54,-24.0
0.5,2.0,19,57,-27.0
0.5,2.0,20,74,-14.0
0.5,2.0,21,17,-8.0
0.5,2.0,22,33,-15.0
0.5,2.0,23,45,-18.0
0.5,2.5,0,40,-19.0
0.5,2.5,1,45,-38.0
0.5,2.5,2,65,-23.0
0.5,2.5,3,44,-23.0
0.5,2.5,4,71,-36.0
0.5,2.5,5,27,-9.5
0.5,2.5,6,52,-24.0
0.5,2.5,7,59,-27.5
0.5,2.5,8,57,-22.0
0.5,2.5,9,72,-37.0
0.5,2.5,10,56,-24.5
0.5,2.5,11,73,-38.0
0.5,2.5,12,50,-29.0
0.5,2.5,13,40,-12.0
0.5,2.5,14,74,-21.5
0.5,2.5,15,57,-32.5
0.5,2.5,16,73,-27.5
0.5,2.5,17,52,-24.0
0.5,2.5,18,54,-29.5
0.5,2.5,19,57,-25.5
0.5,2.5,20,74,-11.0
0.5,2.5,21,17,-6.5
0.5,2.5,22,33,-15.5
0.5,2.5,23,45,-20.5
0.5,3.0,0,40,-16.0
0.5,3.0,1,45,-37.0
0.5,3.0,2,65,-33.0
0.5,3.0,3,44,-24.0
0.5,3.0,4,71,-35.0
0.5,3.0,5,27,-7.0
0.5,3.0,6,52,-20.0
0.5,3.0,7,59,-27.0
0.5,3.0,8,57,-17.0
0.5,3.0,9,72,-32.0
0.5,3.0,10,56,-24.0
0.5,3.0,11,73,-37.0
0.5,3.0,12,50,-26.0
0.5,3.0,13,40,-16.0
0.5,3.0,14,74,-18.0
0.5,3.0,15,57,-37.0
0.5,3.0,16,73,-21.0
0.5,3.0,17,52,-20.0
0.5,3.0,18,54,-30.0
0.5,3.0,19,57,-25.0
0.5,3.0,20,74,-6.0
0.5,3.0,21,17,-9.0
0.5,3.0,22,33,-13.0
0.5,3.0,23,45,-25.0
0.75,0.5,0,40,-1.0
0.75,0.5,1,45,-15.0
0.75,0.5,2,65,-8.0
0.75,0.5,3,44,-0.5
0.75,0.5,4,71,-8.0
0.75,0.5,5,27,-4.5
0.75,0.5,6,52,-5.5
0.75,0.5,7,59,-9.5
0.75,0.5,8,57,1.5
0.75,0.5,9,72,-4.5
0.75,0.5,10,56,-5.0
0.75,0.5,11,73,-13.0
0.75,0.5,12,50,-8.0
0.75,0.5,13,40,2.0
0.75,0.5,14,74,4.0
0.75,0.5,15,57,-1.5
0.75,0.5,16,73,-4.0
0.75,0.5,17,52,-2.5
0.75,0.5,18,54,7.5
0.75,0.5,19,57,-12.0
0.75,0.5,20,74,1.0
0.75,0.5,21,17,1.0
0.75,0.5,22,33,3.0
0.75,0.5,23,45,7.5
0.75,0.75,0,40,-6.75
0.75,0.75,1,45,-15.25
0.75,0.75,2,65,-14.25
0.75,0.75,3,44,-9.0
0.75,0.75,4,71,-11.5
0.75,0.75,5,27,-4.25
0.75,0.75,6,52,-3.0
0.75,0.75,7,59,-11.75
0.75,0.75,8,57,0.75
0.75,0.75,9,72,-9.0
0.75,0.75,10,56,-1.75
0.75,0.75,11,73,-11.75
0.75,0.75,12,50,-16.75
0.75,0.75,13,40,2.0
0.75,0.75,14,74,4.75
0.75,0.75,15,57,-2.75
0.75,0.75,16,73,-10.0
0.75,0.75,17,52,-4.75
0.75,0.75,18,54,2.0
0.75,0.75,19,57,-15.0
0.75,0.75,20,74,1.25
0.75,0.75,21,17,2.25
0.75,0.75,22,33,2.0
0.75,0.75,23,45,-1.25
0.75,1.0,0,40,-8.0
0.75,1.0,1,45,-17.0
0.75,1.0,2,65,-13.0
0.75,1.0,3,44,-18.0
0.75,1.0,4,71,-15.0
0.75,1.0,5,27,-5.0
0.75,1.0,6,52,-12.0
0.75,1.0,7,59,-27.0
0.75,1.0,8,57,1.0
0.75,1.0,9,72,-18.0
0.75,1.0,10,56,-12.0
0.75,1.0,11,73,-17.0
0.75,1.0,12,50,-20.0
0.75,1.0,13,40,0.0
0.75,1.0,14,74,8.0
0.75,1.0,15,57,-5.0
0.75,1.0,16,73,-17.0
0.75,1.0,17,52,-4.0
0.75,1.0,18,54,6.0
0.75,1.0,19,57,-17.0
0.75,1.0,20,74,6.0
0.75,1.0,21,17,1.0
0.75,1.0,22,33,-3.0
0.75,1.0,23,45,1.0
0.75,1.25,0,40,-4.0
0.75,1.25,1,45,-15.75
0.75,1.25,2,65,-11.0
0.75,1.25,3,44,-14.75
0.75,1.25,4,71,-19.25
0.75,1.25,5,27,-6.75
0.75,1.25,6,52,-11.5
0.75,1.25,7,59,-27.5
0.75,1.25,8,57,1.5
0.75,1.25,9,72,-22.5
0.75,1.25,10,56,-15.5
0.75,1.25,11,73,-12.25
0.75,1.25,12,50,-20.75
0.75,1.25,13,40,2.75
0.75,1.25,14,74,4.75
0.75,1.25,15,57,-7.5
0.75,1.25,16,73,-16.75
0.75,1.25,17,52,-11.5
0.75,1.25,18,54,11.25
0.75,1.25,19,57,-14.25
0.75,1.25,20,74,-2.0
0.75,1.25,21,17,1.0
0.75,1.25,22,33,0.75
0.75,1.25,23,45,0.0
0.75,1.5,0,40,-5.0
0.75,1.5,1,45,-20.0
0.75,1.5,2,65,-5.0
0.75,1.5,3,44,-14.0
0.75,1.5,4,71,-21.0
0.75,1.5,5,27,-4.5
0.75,1.5,6,52,-9.5
0.75,1.5,7,59,-26.5
0.75,1.5,8,57,-4.5
0.75,1.5,9,72,-24.5
0.75,1.5,10,56,-13.5
0.75,1.5,11,73,-18.0
0.75,1.5,12,50,-20.0
0.75,1.5,13,40,2.5
0.75,1.5,14,74,1.0
0.75,1.5,15,57,-9.5
0.75,1.5,16,73,-13.0
0.75,1.5,17,52,-12.0
0.75,1.5,18,54,6.0
0.75,1.5,19,57,-17.0
0.75,1.5,20,74,3.5
0.75,1.5,21,17,-2.0
0.75,1.5,22,33,2.0
0.75,1.5,23,45,-7.5
0.75,2.0,0,40,-1.0
0.75,2.0,1,45,-18.0
0.75,2.0,2,65,-14.0
0.75,2.0,3,44,-14.0
0.75,2.0,4,71,-29.0
0.75,2.0,5,27,0.0
0.75,2.0,6,52,-1.0
0.75,2.0,7,59,-23.0
0.75,2.0,8,57,3.0
0.75,2.0,9,72,-18.0
0.75,2.0,10,56,-14.0
0.75,2.0,11,73,-25.0
0.75,2.0,12,50,-17.0
0.75,2.0,13,40,-1.0
0.75,2.0,14,74,4.0
0.75,2.0,15,57,-12.0
0.75,2.0,16,73,-7.0
0.75,2.0,17,52,-7.0
0.75,2.0,18,54,3.0
0.75,2.0,19,57,-18.0
0.75,2.0,20,74,7.0
0.75,2.0,21,17,-5.0
0.75,2.0,22,33,6.0
0.75,2.0,23,45,-9.0
0.75,2.5,0,40,-1.5
0.75,2.5,1,45,-24.0
0.75,2.5,2,65,-26.5
0.75,2.5,3,44,-9.0
0.75,2.5,4,71,-39.5
0.75,2.5,5,27,-2.5
0.75,2.5,6,52,-3.0
0.75,2.5,7,59,-27.5
0.75,2.5,8,57,2.5
0.75,2.5,9,72,-12.5
0.75,2.5,10,56,-17.5
0.75,2.5,11,73,-27.5
0.75,2.5,12,50,-25.5
0.75,2.5,13,40,-5.0
0.75,2.5,14,74,6.5
0.75,2.5,15,57,-11.5
0.75,2.5,16,73,-3.0
0.75,2.5,17,52,-3.0
0.75,2.5,18,54,5.5
0.75,2.5,19,57,-22.0
0.75,2.5,20,74,10.0
0.75,2.5,21,17,-3.0
0.75,2.5,22,33,12.5
0.75,2.5,23,45,-10.0
0.75,3.0,0,40,-4.0
0.75,3.0,1,45,-29.0
0.75,3.0,2,65,-21.0
0.75,3.0,3,44,-4.0
0.75,3.0,4,71,-39.0
0.75,3.0,5,27,-3.0
0.75,3.0,6,52,0.0
0.75,3.0,7,59,-23.0
0.75,3.0,8,57,7.0
0.75,3.0,9,72,-16.0
0.75,3.0,10,56,-20.0
0.75,3.0,11,73,-21.0
0.75,3.0,12,50,-26.0
0.75,3.0,13,40,-4.0
0.75,3.0,14,74,14.0
0.75,3.0,15,57,-13.0
0.75,3.0,16,73,-5.0
0.75,3.0,17,52,0.0
0.75,3.0,18,54,6.0
0.75,3.0,19,57,-29.0
0.75,3.0,20,74,6.0
0.75,3.0,21,17,-1.0
0.75,3.0,22,33,15.0
0.75,3.0,23,45,-5.0
1.0,0.5,0,40,-4.0
1.0,0.5,1,45,-3.0
1.0,0.5,2,65,-9.5
1.0,0.5,3,44,-3.5
1.0,0.5,4,71,-2.0
1.0,0.5,5,27,4.5
1.0,0.5,6,52,5.0
1.0,0.5,7,59,-5.0
1.0,0.5,8,57,7.5
1.0,0.5,9,72,-9.0
1.0,0.5,10,56,4.0
1.0,0.5,11,73,0.5
1.0,0.5,12,50,2.5
1.0,0.5,13,40,3.5
1.0,0.5,14,74,1.0
1.0,0.5,15,57,7.5
1.0,0.5,16,73,0.5
1.0,0.5,17,52,-1.0
1.0,0.5,18,54,10.5
1.0,0.5,19,57,-6.0
1.0,0.5,20,74,2.5
1.0,0.5,21,17,-0.5
1.0,0.5,22,33,1.5
1.0,0.5,23,45,3.0
1.0,0.75,0,40,-1.5
1.0,0.75,1,45,-3.0
1.0,0.75,2,65,-10.75
1.0,0.75,3,44,-16.0
1.0,0.75,4,71,-9.75
1.0,0.75,5,27,4.5
1.0,0.75,6,52,-3.0
1.0,0.75,7,59,-20.5
1.0,0.75,8,57,7.75
1.0,0.75,9,72,-16.0
1.0,0.75,10,56,-1.75
1.0,0.75,11,73,-8.25
1.0,0.75,12,50,0.75
1.0,0.75,13,40,2.0
1.0,0.75,14,74,4.75
1.0,0.75,15,57,0.75
1.0,0.75,16,73,-1.25
1.0,0.75,17,52,0.5
1.0,0.75,18,54,16.0
1.0,0.75,19,57,-4.5
1.0,0.75,20,74,6.5
1.0,0.75,21,17,-1.25
1.0,0.75,22,33,-1.5
1.0,0.75,23,45,0.5
1.0,1.0,0,40,2.0
1.0,1.0,1,45,-5.0
1.0,1.0,2,65,-7.0
1.0,1.0,3,44,-14.0
1.0,1.0,4,71,-13.0
1.0,1.0,5,27,3.0
1.0,1.0,6,52,0.0
1.0,1.0,7,59,-23.0
1.0,1.0,8,57,7.0
1.0,1.0,9,72,-22.0
1.0,1.0,10,56,-12.0
1.0,1.0,11,73,-5.0
1.0,1.0,12,50,-2.0
1.0,1.0,13,40,4.0
1.0,1.0,14,74,-2.0
1.0,1.0,15,57,1.0
1.0,1.0,16,73,-1.0
1.0,1.0,17,52,-6.0
1.0,1.0,18,54,20.0
1.0,1.0,19,57,1.0
1.0,1.0,20,74,0.0
1.0,1.0,21,17,-1.0
1.0,1.0,22,33,1.0
1.0,1.0,23,45,-7.0
1.0,1.25,0,40,2.75
1.0,1.25,1,45,-6.75
1.0,1.25,2,65,-6.5
1.0,1.25,3,44,-12.5
1.0,1.25,4,71,-14.75
1.0,1.25,5,27,2.25
1.0,1.25,6,52,2.0
1.0,1.25,7,59,-18.5
1.0,1.25,8,57,6.0
1.0,1.25,9,72,-24.75
1.0,1.25,10,56,-13.25
1.0,1.25,11,73,-14.5
1.0,1.25,12,50,-2.75
1.0,1.25,13,40,9.5
1.0,1.25,14,74,-2.0
1.0,1.25,15,57,-3.0
1.0,1.25,16,73,-1.0
1.0,1.25,17,52,-4.75
1.0,1.25,18,54,11.25
1.0,1.25,19,57,-3.0
1.0,1.25,20,74,2.5
1.0,1.25,21,17,1.0
1.0,1.25,22,33,5.25
1.0,1.25,23,45,-13.5
1.0,1.5,0,40,5.0
1.0,1.5,1,45,-2.5
1.0,1.5,2,65,-12.5
1.0,1.5,3,44,-14.0
1.0,1.5,4,71,-21.0
1.0,1.5,5,27,5.5
1.0,1.5,6,52,8.0
1.0,1.5,7,59,-16.5
1.0,1.5,8,57,13.0
1.0,1.5,9,72,-22.0
1.0,1.5,10,56,-13.5
1.0,1.5,11,73,-15.5
1.0,1.5,12,50,-2.5
1.0,1.5,13,40,5.0
1.0,1.5,14,74,1.0
1.0,1.5,15,57,-4.5
1.0,1.5,16,73,4.5
1.0,1.5,17,52,0.5
1.0,1.5,18,54,13.5
1.0,1.5,19,57,-4.5
1.0,1.5,20,74,6.0
1.0,1.5,21,17,-4.5
1.0,1.5,22,33,7.0
1.0,1.5,23,45,-12.5
1.0,2.0,0,40,5.0
1.0,2.0,1,45,-12.0
1.0,2.0,2,65,-20.0
1.0,2.0,3,44,-8.0
1.0,2.0,4,71,-23.0
1.0,2.0,5,27,0.0
1.0,2.0,6,52,-1.0
1.0,2.0,7,59,-20.0
1.0,2.0,8,57,18.0
1.0,2.0,9,72,-24.0
1.0,2.0,10,56,-17.0
1.0,2.0,11,73,-16.0
1.0,2.0,12,50,-5.0
1.0,2.0,13,40,-1.0
1.0,2.0,14,74,10.0
1.0,2.0,15,57,-6.0
1.0,2.0,16,73,2.0
1.0,2.0,17,52,5.0
1.0,2.0,18,54,12.0
1.0,2.0,19,57,-15.0
1.0,2.0,20,74,4.0
1.0,2.0,21,17,-2.0
1.0,2.0,22,33,15.0
1.0,2.0,23,45,-15.0
1.0,2.5,0,40,5.5
1.0,2.5,1,45,-13.5
1.0,2.5,2,65,-12.5
1.0,2.5,3,44,-2.0
1.0,2.5,4,71,-22.0
1.0,2.5,5,27,4.5
1.0,2.5,6,52,0.5
1.0,2.5,7,59,-17.0
1.0,2.5,8,57,23.5
1.0,2.5,9,72,-23.0
1.0,2.5,10,56,-14.0
1.0,2.5,11,73,-10.0
1.0,2.5,12,50,-4.5
1.0,2.5,13,40,2.0
1.0,2.5,14,74,3.0
1.0,2.5,15,57,-11.5
1.0,2.5,16,73,0.5
1.0,2.5,17,52,7.5
1.0,2.5,18,54,12.5
1.0,2.5,19,57,-11.5
1.0,2.5,20,74,6.5
1.0,2.5,21,17,0.5
1.0,2.5,22,33,19.5
1.0,2.5,23,45,-10.0
1.0,3.0,0,40,8.0
1.0,3.0,1,45,-13.0
1.0,3.0,2,65,-17.0
1.0,3.0,3,44,-4.0
1.0,3.0,4,71,-19.0
1.0,3.0,5,27,5.0
1.0,3.0,6,52,0.0
1.0,3.0,7,59,-19.0
1.0,3.0,8,57,19.0
1.0,3.0,9,72,-24.0
1.0,3.0,10,56,-16.0
1.0,3.0,11,73,-21.0
1.0,3.0,12,50,-6.0
1.0,3.0,13,40,-4.0
1.0,3.0,14,74,6.0
1.0,3.0,15,57,-13.0
1.0,3.0,16,73,-9.0
1.0,3.0,17,52,16.0
1.0,3.0,18,54,10.0
1.0,3.0,19,57,-9.0
1.0,3.0,20,74,6.0
1.0,3.0,21,17,3.0
1.0,3.0,22,33,23.0
1.0,3.0,23,45,-13.0
1.25,0.5,0,40,-2.5
1.25,0.5,1,45,-1.5
1.25,0.5,2,65,-12.5
1.25,0.5,3,44,-6.5
1.25,0.5,4,71,-2.0
1.25,0.5,5,27,3.0
1.25,0.5,6,52,-1.0
1.25,0.5,7,59,-12.5
1.25,0.5,8,57,3.0
1.25,0.5,9,72,-7.5
1.25,0.5,10,56,1.0
1.25,0.5,11,73,2.0
1.25,0.5,12,50,4.0
1.25,0.5,13,40,5.0
1.25,0.5,14,74,7.0
1.25,0.5,15,57,3.0
1.25,0.5,16,73,3.5
1.25,0.5,17,52,-2.5
1.25,0.5,18,54,7.5
1.25,0.5,19,57,-3.0
1.25,0.5,20,74,5.5
1.25,0.5,21,17,2.5
1.25,0.5,22,33,1.5
1.25,0.5,23,45,1.5
1.25,0.75,0,40,0.25
1.25,0.75,1,45,2.25
1.25,0.75,2,65,-9.0
1.25,0.75,3,44,-12.5
1.25,0.75,4,71,-8.0
1.25,0.75,5,27,2.75
1.25,0.75,6,52,-3.0
1.25,0.75,7,59,-20.5
1.25,0.75,8,57,4.25
1.25,0.75,9,72,-12.5
1.25,0.75,10,56,-1.75
1.25,0.75,11,73,-1.25
1.25,0.75,12,50,4.25
1.25,0.75,13,40,7.25
1.25,0.75,14,74,8.25
1.25,0.75,15,57,-1.0
1.25,0.75,16,73,0.5
1.25,0.75,17,52,-6.5
1.25,0.75,18,54,12.5
1.25,0.75,19,57,2.5
1.25,0.75,20,74,1.25
1.25,0.75,21,17,4.0
1.25,0.75,22,33,0.25
1.25,0.75,23,45,2.25
1.25,1.0,0,40,0.0
1.25,1.0,1,45,-3.0
1.25,1.0,2,65,-7.0
1.25,1.0,3,44,-10.0
1.25,1.0,4,71,-9.0
1.25,1.0,5,27,3.0
1.25,1.0,6,52,0.0
1.25,1.0,7,59,-17.0
1.25,1.0,8,57,3.0
1.25,1.0,9,72,-14.0
1.25,1.0,10,56,-10.0
1.25,1.0,11,73,-9.0
1.25,1.0,12,50,-2.0
1.25,1.0,13,40,12.0
1.25,1.0,14,74,6.0
1.25,1.0,15,57,-3.0
1.25,1.0,16,73,1.0
1.25,1.0,17,52,-6.0
1.25,1.0,18,54,6.0
1.25,1.0,19,57,-1.0
1.25,1.0,20,74,2.0
1.25,1.0,21,17,3.0
1.25,1.0,22,33,5.0
1.25,1.0,23,45,-7.0
1.25,1.25,0,40,0.5
1.25,1.25,1,45,2.25
1.25,1.25,2,65,-17.75
1.25,1.25,3,44,-10.25
1.25,1.25,4,71,-14.75
1.25,1.25,5,27,6.75
1.25,1.25,6,52,2.0
1.25,1.25,7,59,-16.25
1.25,1.25,8,57,10.5
1.25,1.25,9,72,-9.0
1.25,1.25,10,56,-13.25
1.25,1.25,11,73,-12.25
1.25,1.25,12,50,-5.0
1.25,1.25,13,40,7.25
1.25,1.25,14,74,9.25
1.25,1.25,15,57,-7.5
1.25,1.25,16,73,5.75
1.25,1.25,17,52,-0.25
1.25,1.25,18,54,11.25
1.25,1.25,19,57,-3.0
1.25,1.25,20,74,4.75
1.25,1.25,21,17,-1.25
1.25,1.25,22,33,7.5
1.25,1.25,23,45,-4.5
1.25,1.5,0,40,2.5
1.25,1.5,1,45,-5.0
1.25,1.5,2,65,-17.5
1.25,1.5,3,44,-6.5
1.25,1.5,4,71,-13.5
1.25,1.5,5,27,3.0
1.25,1.5,6,52,0.5
1.25,1.5,7,59,-19.0
1.25,1.5,8,57,8.0
1.25,1.5,9,72,-4.5
1.25,1.5,10,56,-13.5
1.25,1.5,11,73,-18.0
1.25,1.5,12,50,-5.0
1.25,1.5,13,40,5.0
1.25,1.5,14,74,16.0
1.25,1.5,15,57,-9.5
1.25,1.5,16,73,12.0
1.25,1.5,17,52,3.0
1.25,1.5,18,54,11.0
1.25,1.5,19,57,-7.0
1.25,1.5,20,74,6.0
1.25,1.5,21,17,0.5
1.25,1.5,22,33,12.0
1.25,1.5,23,45,-10.0
1.25,2.0,0,40,2.0
1.25,2.0,1,45,-6.0
1.25,2.0,2,65,-8.0
1.25,2.0,3,44,1.0
1.25,2.0,4,71,-8.0
1.25,2.0,5,27,9.0
1.25,2.0,6,52,2.0
1.25,2.0,7,59,-14.0
1.25,2.0,8,57,15.0
1.25,2.0,9,72,-9.0
1.25,2.0,10,56,-17.0
1.25,2.0,11,73,-16.0
1.25,2.0,12,50,-5.0
1.25,2.0,13,40,11.0
1.25,2.0,14,74,16.0
1.25,2.0,15,57,-6.0
1.25,2.0,16,73,5.0
1.25,2.0,17,52,8.0
1.25,2.0,18,54,12.0
1.25,2.0,19,57,-15.0
1.25,2.0,20,74,7.0
1.25,2.0,21,17,4.0
1.25,2.0,22,33,18.0
1.25,2.0,23,45,-3.0
1.25,2.5,0,40,5.5
1.25,2.5,1,45,-6.5
1.25,2.5,2,65,-16.0
1.25,2.5,3,44,5.0
1.25,2.5,4,71,-4.5
1.25,2.5,5,27,11.5
1.25,2.5,6,52,0.5
1.25,2.5,7,59,-17.0
1.25,2.5,8,57,13.0
1.25,2.5,9,72,-9.0
1.25,2.5,10,56,-21.0
1.25,2.5,11,73,-24.0
1.25,2.5,12,50,-8.0
1.25,2.5,13,40,2.0
1.25,2.5,14,74,17.0
1.25,2.5,15,57,-4.5
1.25,2.5,16,73,-3.0
1.25,2.5,17,52,18.0
1.25,2.5,18,54,9.0
1.25,2.5,19,57,-15.0
1.25,2.5,20,74,3.0
1.25,2.5,21,17,7.5
1.25,2.5,22,33,16.0
1.25,2.5,23,45,0.5
1.25,3.0,0,40,4.0
1.25,3.0,1,45,-5.0
1.25,3.0,2,65,-13.0
1.25,3.0,3,44,8.0
1.25,3.0,4,71,-7.0
1.25,3.0,5,27,5.0
1.25,3.0,6,52,4.0
1.25,3.0,7,59,-11.0
1.25,3.0,8,57,7.0
1.25,3.0,9,72,-4.0
1.25,3.0,10,56,-20.0
1.25,3.0,11,73,-17.0
1.25,3.0,12,50,-10.0
1.25,3.0,13,40,4.0
1.25,3.0,14,74,14.0
1.25,3.0,15,57,-5.0
1.25,3.0,16,73,-1.0
1.25,3.0,17,52,12.0
1.25,3.0,18,54,6.0
1.25,3.0,19,57,-13.0
1.25,3.0,20,74,-6.0
1.25,3.0,21,17,11.0
1.25,3.0,22,33,23.0
1.25,3.0,23,45,7.0
1.5,0.5,0,40,-1.0
1.5,0.5,1,45,0.0
1.5,0.5,2,65,-9.5
1.5,0.5,3,44,-11.0
1.5,0.5,4,71,-3.5
1.5,0.5,5,27,3.0
1.5,0.5,6,52,-4.0
1.5,0.5,7,59,-17.0
1.5,0.5,8,57,4.5
1.5,0.5,9,72,-9.0
1.5,0.5,10,56,1.0
1.5,0.5,11,73,-1.0
1.5,0.5,12,50,4.0
1.5,0.5,13,40,3.5
1.5,0.5,14,74,10.0
1.5,0.5,15,57,3.0
1.5,0.5,16,73,-1.0
1.5,0.5,17,52,-1.0
1.5,0.5,18,54,9.0
1.5,0.5,19,57,-3.0
1.5,0.5,20,74,8.5
1.5,0.5,21,17,5.5
1.5,0.5,22,33,-1.5
1.5,0.5,23,45,4.5
1.5,0.75,0,40,0.25
1.5,0.75,1,45,-1.25
1.5,0.75,2,65,-5.5
1.5,0.75,3,44,-9.0
1.5,0.75,4,71,-1.0
1.5,0.75,5,27,4.5
1.5,0.75,6,52,-3.0
1.5,0.75,7,59,-13.5
1.5,0.75,8,57,0.75
1.5,0.75,9,72,-14.25
1.5,0.75,10,56,-7.0
1.5,0.75,11,73,-3.0
1.5,0.75,12,50,0.75
1.5,0.75,13,40,9.0
1.5,0.75,14,74,10.0
1.5,0.75,15,57,-4.5
1.5,0.75,16,73,-1.25
1.5,0.75,17,52,-8.25
1.5,0.75,18,54,5.5
1.5,0.75,19,57,-4.5
1.5,0.75,20,74,8.25
1.5,0.75,21,17,7.5
1.5,0.75,22,33,2.0
1.5,0.75,23,45,-4.75
1.5,1.0,0,40,4.0
1.5,1.0,1,45,3.0
1.5,1.0,2,65,-11.0
1.5,1.0,3,44,-10.0
1.5,1.0,4,71,-5.0
1.5,1.0,5,27,5.0
1.5,1.0,6,52,4.0
1.5,1.0,7,59,-11.0
1.5,1.0,8,57,9.0
1.5,1.0,9,72,-10.0
1.5,1.0,10,56,-10.0
1.5,1.0,11,73,-9.0
1.5,1.0,12,50,-4.0
1.5,1.0,13,40,8.0
1.5,1.0,14,74,14.0
1.5,1.0,15,57,-9.0
1.5,1.0,16,73,5.0
1.5,1.0,17,52,-4.0
1.5,1.0,18,54,6.0
1.5,1.0,19,57,-9.0
1.5,1.0,20,74,8.0
1.5,1.0,21,17,1.0
1.5,1.0,22,33,3.0
1.5,1.0,23,45,-5.0
1.5,1.25,0,40,2.75
1.5,1.25,1,45,-2.25
1.5,1.25,2,65,-13.25
1.5,1.25,3,44,-5.75
1.5,1.25,4,71,-8.0
1.5,1.25,5,27,4.5
1.5,1.25,6,52,6.5
1.5,1.25,7,59,-11.75
1.5,1.25,8,57,3.75
1.5,1.25,9,72,-4.5
1.5,1.25,10,56,-11.0
1.5,1.25,11,73,-14.5
1.5,1.25,12,50,-5.0
1.5,1.25,13,40,2.75
1.5,1.25,14,74,22.75
1.5,1.25,15,57,-12.0
1.5,1.25,16,73,8.0
1.5,1.25,17,52,-0.25
1.5,1.25,18,54,9.0
1.5,1.25,19,57,-12.0
1.5,1.25,20,74,7.0
1.5,1.25,21,17,3.25
1.5,1.25,22,33,7.5
1.5,1.25,23,45,-9.0
1.5,1.5,0,40,2.5
1.5,1.5,1,45,-7.5
1.5,1.5,2,65,-7.5
1.5,1.5,3,44,-1.5
1.5,1.5,4,71,-1.0
1.5,1.5,5,27,8.0
1.5,1.5,6,52,8.0
1.5,1.5,7,59,-9.0
1.5,1.5,8,57,5.5
1.5,1.5,9,72,-7.0
1.5,1.5,10,56,-16.0
1.5,1.5,11,73,-13.0
1.5,1.5,12,50,-5.0
1.5,1.5,13,40,5.0
1.5,1.5,14,74,26.0
1.5,1.5,15,57,-9.5
1.5,1.5,16,73,7.0
1.5,1.5,17,52,0.5
1.5,1.5,18,54,11.0
1.5,1.5,19,57,-22.0
1.5,1.5,20,74,6.0
1.5,1.5,21,17,5.5
1.5,1.5,22,33,12.0
1.5,1.5,23,45,-7.5
1.5,2.0,0,40,2.0
1.5,2.0,1,45,-6.0
1.5,2.0,2,65,-8.0
1.5,2.0,3,44,4.0
1.5,2.0,4,71,7.0
1.5,2.0,5,27,12.0
1.5,2.0,6,52,8.0
1.5,2.0,7,59,-5.0
1.5,2.0,8,57,6.0
1.5,2.0,9,72,-12.0
1.5,2.0,10,56,-17.0
1.5,2.0,11,73,-22.0
1.5,2.0,12,50,-5.0
1.5,2.0,13,40,5.0
1.5,2.0,14,74,19.0
1.5,2.0,15,57,-9.0
1.5,2.0,16,73,2.0
1.5,2.0,17,52,8.0
1.5,2.0,18,54,6.0
1.5,2.0,19,57,-18.0
1.5,2.0,20,74,10.0
1.5,2.0,21,17,10.0
1.5,2.0,22,33,12.0
1.5,2.0,23,45,-6.0
1.5,2.5,0,40,2.0
1.5,2.5,1,45,-3.0
1.5,2.5,2,65,-12.5
1.5,2.5,3,44,8.5
1.5,2.5,4,71,6.0
1.5,2.5,5,27,4.5
1.5,2.5,6,52,14.5
1.5,2.5,7,59,0.5
1.5,2.5,8,57,2.5
1.5,2.5,9,72,-9.0
1.5,2.5,10,56,-17.5
1.5,2.5,11,73,-17.0
1.5,2.5,12,50,-11.5
1.5,2.5,13,40,5.5
1.5,2.5,14,74,20.5
1.5,2.5,15,57,-11.5
1.5,2.5,16,73,4.0
1.5,2.5,17,52,4.0
1.5,2.5,18,54,5.5
1.5,2.5,19,57,-18.5
1.5,2.5,20,74,-0.5
1.5,2.5,21,17,11.0
1.5,2.5,22,33,19.5
1.5,2.5,23,45,0.5
1.5,3.0,0,40,4.0
1.5,3.0,1,45,-1.0
1.5,3.0,2,65,-5.0
1.5,3.0,3,44,12.0
1.5,3.0,4,71,5.0
1.5,3.0,5,27,9.0
1.5,3.0,6,52,20.0
1.5,3.0,7,59,1.0
1.5,3.0,8,57,3.0
1.5,3.0,9,72,-12.0
1.5,3.0,10,56,-20.0
1.5,3.0,11,73,-13.0
1.5,3.0,12,50,-10.0
1.5,3.0,13,40,12.0
1.5,3.0,14,74,22.0
1.5,3.0,15,57,-13.0
1.5,3.0,16,73,15.0
1.5,3.0,17,52,4.0
1.5,3.0,18,54,2.0
1.5,3.0,19,57,-21.0
1.5,3.0,20,74,-6.0
1.5,3.0,21,17,11.0
1.5,3.0,22,33,15.0
1.5,3.0,23,45,7.0
2.0,0.5,0,40,6.5
2.0,0.5,1,45,-3.0
2.0,0.5,2,65,-8.0
2.0,0.5,3,44,-6.5
2.0,0.5,4,71,-2.0
2.0,0.5,5,27,3.0
2.0,0.5,6,52,-4.0
2.0,0.5,7,59,-9.5
2.0,0.5,8,57,6.0
2.0,0.5,9,72,-9.0
2.0,0.5,10,56,-6.5
2.0,0.5,11,73,0.5
2.0,0.5,12,50,-0.5
2.0,0.5,13,40,5.0
2.0,0.5,14,74,5.5
2.0,0.5,15,57,-3.0
2.0,0.5,16,73,-1.0
2.0,0.5,17,52,-10.0
2.0,0.5,18,54,6.0
2.0,0.5,19,57,-3.0
2.0,0.5,20,74,5.5
2.0,0.5,21,17,4.0
2.0,0.5,22,33,-1.5
2.0,0.5,23,45,-1.5
2.0,0.75,0,40,7.25
2.0,0.75,1,45,-3.0
2.0,0.75,2,65,-12.5
2.0,0.75,3,44,-7.25
2.0,0.75,4,71,-6.25
2.0,0.75,5,27,4.5
2.0,0.75,6,52,2.25
2.0,0.75,7,59,-4.75
2.0,0.75,8,57,9.5
2.0,0.75,9,72,-14.25
2.0,0.75,10,56,-8.75
2.0,0.75,11,73,-6.5
2.0,0.75,12,50,-4.5
2.0,0.75,13,40,3.75
2.0,0.75,14,74,8.25
2.0,0.75,15,57,-8.0
2.0,0.75,16,73,4.0
2.0,0.75,17,52,-6.5
2.0,0.75,18,54,2.0
2.0,0.75,19,57,-9.75
2.0,0.75,20,74,8.25
2.0,0.75,21,17,0.5
2.0,0.75,22,33,0.25
2.0,0.75,23,45,-8.25
2.0,1.0,0,40,4.0
2.0,1.0,1,45,-9.0
2.0,1.0,2,65,-11.0
2.0,1.0,3,44,-2.0
2.0,1.0,4,71,-5.0
2.0,1.0,5,27,5.0
2.0,1.0,6,52,2.0
2.0,1.0,7,59,-7.0
2.0,1.0,8,57,9.0
2.0,1.0,9,72,-16.0
2.0,1.0,10,56,-16.0
2.0,1.0,11,73,-13.0
2.0,1.0,12,50,-8.0
2.0,1.0,13,40,0.0
2.0,1.0,14,74,18.0
2.0,1.0,15,57,-7.0
2.0,1.0,16,73,5.0
2.0,1.0,17,52,-8.0
2.0,1.0,18,54,4.0
2.0,1.0,19,57,-17.0
2.0,1.0,20,74,10.0
2.0,1.0,21,17,3.0
2.0,1.0,22,33,5.0
2.0,1.0,23,45,-11.0
2.0,1.25,0,40,2.75
2.0,1.25,1,45,-13.5
2.0,1.25,2,65,-4.25
2.0,1.25,3,44,-1.25
2.0,1.25,4,71,3.25
2.0,1.25,5,27,9.0
2.0,1.25,6,52,4.25
2.0,1.25,7,59,-0.5
2.0,1.25,8,57,6.0
2.0,1.25,9,72,-15.75
2.0,1.25,10,56,-17.75
2.0,1.25,11,73,-12.25
2.0,1.25,12,50,-7.25
2.0,1.25,13,40,2.75
2.0,1.25,14,74,22.75
2.0,1.25,15,57,-5.25
2.0,1.25,16,73,3.5
2.0,1.25,17,52,-4.75
2.0,1.25,18,54,6.75
2.0,1.25,19,57,-18.75
2.0,1.25,20,74,11.5
2.0,1.25,21,17,5.5
2.0,1.25,22,33,9.75
2.0,1.25,23,45,-11.25
2.0,1.5,0,40,2.5
2.0,1.5,1,45,-10.0
2.0,1.5,2,65,-7.5
2.0,1.5,3,44,1.0
2.0,1.5,4,71,4.0
2.0,1.5,5,27,10.5
2.0,1.5,6,52,3.0
2.0,1.5,7,59,1.0
2.0,1.5,8,57,3.0
2.0,1.5,9,72,-19.5
2.0,1.5,10,56,-18.5
2.0,1.5,11,73,-20.5
2.0,1.5,12,50,-7.5
2.0,1.5,13,40,0.0
2.0,1.5,14,74,21.0
2.0,1.5,15,57,-4.5
2.0,1.5,16,73,-5.5
2.0,1.5,17,52,-2.0
2.0,1.5,18,54,3.5
2.0,1.5,19,57,-17.0
2.0,1.5,20,74,11.0
2.0,1.5,21,17,8.0
2.0,1.5,22,33,4.5
2.0,1.5,23,45,-10.0
2.0,2.0,0,40,2.0
2.0,2.0,1,45,-12.0
2.0,2.0,2,65,-5.0
2.0,2.0,3,44,4.0
2.0,2.0,4,71,1.0
2.0,2.0,5,27,9.0
2.0,2.0,6,52,8.0
2.0,2.0,7,59,4.0
2.0,2.0,8,57,0.0
2.0,2.0,9,72,-12.0
2.0,2.0,10,56,-20.0
2.0,2.0,11,73,-13.0
2.0,2.0,12,50,-14.0
2.0,2.0,13,40,5.0
2.0,2.0,14,74,13.0
2.0,2.0,15,57,-12.0
2.0,2.0,16,73,-4.0
2.0,2.0,17,52,-7.0
2.0,2.0,18,54,0.0
2.0,2.0,19,57,-18.0
2.0,2.0,20,74,1.0
2.0,2.0,21,17,10.0
2.0,2.0,22,33,3.0
2.0,2.0,23,45,-6.0
2.0,2.5,0,40,5.5
2.0,2.5,1,45,-10.0
2.0,2.5,2,65,1.5
2.0,2.5,3,44,12.0
2.0,2.5,4,71,-11.5
2.0,2.5,5,27,15.0
2.0,2.5,6,52,7.5
2.0,2.5,7,59,-3.0
2.0,2.5,8,57,6.0
2.0,2.5,9,72,-16.0
2.0,2.5,10,56,-14.0
2.0,2.5,11,73,-20.5
2.0,2.5,12,50,-18.5
2.0,2.5,13,40,9.0
2.0,2.5,14,74,13.5
2.0,2.5,15,57,-15.0
2.0,2.5,16,73,4.0
2.0,2.5,17,52,-6.5
2.0,2.5,18,54,5.5
2.0,2.5,19,57,-25.5
2.0,2.5,20,74,-11.0
2.0,2.5,21,17,7.5
2.0,2.5,22,33,9.0
2.0,2.5,23,45,-3.0
2.0,3.0,0,40,0.0
2.0,3.0,1,45,-5.0
2.0,3.0,2,65,-1.0
2.0,3.0,3,44,12.0
2.0,3.0,4,71,-11.0
2.0,3.0,5,27,9.0
2.0,3.0,6,52,4.0
2.0,3.0,7,59,-7.0
2.0,3.0,8,57,3.0
2.0,3.0,9,72,-8.0
2.0,3.0,10,56,-8.0
2.0,3.0,11,73,-21.0
2.0,3.0,12,50,-14.0
2.0,3.0,13,40,12.0
2.0,3.0,14,74,14.0
2.0,3.0,15,57,-21.0
2.0,3.0,16,73,11.0
2.0,3.0,17,52,0.0
2.0,3.0,18,54,2.0
2.0,3.0,19,57,-21.0
2.0,3.0,20,74,-6.0
2.0,3.0,21,17,11.0
2.0,3.0,22,33,7.0
2.0,3.0,23,45,3.0
2.5,0.5,0,40,6.5
2.5,0.5,1,45,-3.0
2.5,0.5,2,65,-9.5
2.5,0.5,3,44,-6.5
2.5,0.5,4,71,-3.5
2.5,0.5,5,27,1.5
2.5,0.5,6,52,-2.5
2.5,0.5,7,59,-8.0
2.5,0.5,8,57,4.5
2.5,0.5,9,72,-9.0
2.5,0.5,10,56,-3.5
2.5,0.5,11,73,-8.5
2.5,0.5,12,50,1.0
2.5,0.5,13,40,3.5
2.5,0.5,14,74,5.5
2.5,0.5,15,57,-1.5
2.5,0.5,16,73,2.0
2.5,0.5,17,52,-8.5
2.5,0.5,18,54,0.0
2.5,0.5,19,57,-9.0
2.5,0.5,20,74,4.0
2.5,0.5,21,17,1.0
2.5,0.5,22,33,1.5
2.5,0.5,23,45,-6.0
2.5,0.75,0,40,5.5
2.5,0.75,1,45,-4.75
2.5,0.75,2,65,-12.5
2.5,0.75,3,44,-5.5
2.5,0.75,4,71,-6.25
2.5,0.75,5,27,2.75
2.5,0.75,6,52,0.5
2.5,0.75,7,59,-6.5
2.5,0.75,8,57,7.75
2.5,0.75,9,72,-7.25
2.5,0.75,10,56,-5.25
2.5,0.75,11,73,-15.25
2.5,0.75,12,50,-6.25
2.5,0.75,13,40,-1.5
2.5,0.75,14,74,11.75
2.5,0.75,15,57,-4.5
2.5,0.75,16,73,4.0
2.5,0.75,17,52,-4.75
2.5,0.75,18,54,5.5
2.5,0.75,19,57,-13.25
2.5,0.75,20,74,6.5
2.5,0.75,21,17,0.5
2.5,0.75,22,33,5.5
2.5,0.75,23,45,-11.75
2.5,1.0,0,40,6.0
2.5,1.0,1,45,-5.0
2.5,1.0,2,65,-7.0
2.5,1.0,3,44,-4.0
2.5,1.0,4,71,3.0
2.5,1.0,5,27,7.0
2.5,1.0,6,52,2.0
2.5,1.0,7,59,-5.0
2.5,1.0,8,57,5.0
2.5,1.0,9,72,-12.0
2.5,1.0,10,56,-14.0
2.5,1.0,11,73,-13.0
2.5,1.0,12,50,-8.0
2.5,1.0,13,40,2.0
2.5,1.0,14,74,18.0
2.5,1.0,15,57,-1.0
2.5,1.0,16,73,3.0
2.5,1.0,17,52,-6.0
2.5,1.0,18,54,6.0
2.5,1.0,19,57,-19.0
2.5,1.0,20,74,8.0
2.5,1.0,21,17,3.0
2.5,1.0,22,33,11.0
2.5,1.0,23,45,-11.0
2.5,1.25,0,40,7.25
2.5,1.25,1,45,0.0
2.5,1.25,2,65,-13.25
2.5,1.25,3,44,-1.25
2.5,1.25,4,71,5.5
2.5,1.25,5,27,6.75
2.5,1.25,6,52,4.25
2.5,1.25,7,59,-5.0
2.5,1.25,8,57,3.75
2.5,1.25,9,72,-11.25
2.5,1.25,10,56,-13.25
2.5,1.25,11,73,-19.0
2.5,1.25,12,50,-9.5
2.5,1.25,13,40,0.5
2.5,1.25,14,74,18.25
2.5,1.25,15,57,3.75
2.5,1.25,16,73,-1.0
2.5,1.25,17,52,-2.5
2.5,1.25,18,54,4.5
2.5,1.25,19,57,-18.75
2.5,1.25,20,74,2.5
2.5,1.25,21,17,5.5
2.5,1.25,22,33,5.25
2.5,1.25,23,45,-9.0
2.5,1.5,0,40,5.0
2.5,1.5,1,45,-2.5
2.5,1.5,2,65,-10.0
2.5,1.5,3,44,1.0
2.5,1.5,4,71,-1.0
2.5,1.5,5,27,3.0
2.5,1.5,6,52,10.5
2.5,1.5,7,59,-1.5
2.5,1.5,8,57,-2.0
2.5,1.5,9,72,-9.5
2.5,1.5,10,56,-8.5
2.5,1.5,11,73,-18.0
2.5,1.5,12,50,-12.5
2.5,1.5,13,40,5.0
2.5,1.5,14,74,16.0
2.5,1.5,15,57,5.5
2.5,1.5,16,73,-0.5
2.5,1.5,17,52,-4.5
2.5,1.5,18,54,3.5
2.5,1.5,19,57,-14.5
2.5,1.5,20,74,-1.5
2.5,1.5,21,17,5.5
2.5,1.5,22,33,9.5
2.5,1.5,23,45,-7.5
2.5,2.0,0,40,8.0
2.5,2.0,1,45,-3.0
2.5,2.0,2,65,-5.0
2.5,2.0,3,44,4.0
2.5,2.0,4,71,-5.0
2.5,2.0,5,27,9.0
2.5,2.0,6,52,8.0
2.5,2.0,7,59,-5.0
2.5,2.0,8,57,3.0
2.5,2.0,9,72,-12.0
2.5,2.0,10,56,-5.0
2.5,2.0,11,73,-22.0
2.5,2.0,12,50,-17.0
2.5,2.0,13,40,11.0
2.5,2.0,14,74,13.0
2.5,2.0,15,57,-6.0
2.5,2.0,16,73,11.0
2.5,2.0,17,52,-4.0
2.5,2.0,18,54,3.0
2.5,2.0,19,57,-21.0
2.5,2.0,20,74,-14.0
2.5,2.0,21,17,7.0
2.5,2.0,22,33,9.0
2.5,2.0,23,45,0.0
2.5,2.5,0,40,2.0
2.5,2.5,1,45,-10.0
2.5,2.5,2,65,-5.5
2.5,2.5,3,44,8.5
2.5,2.5,4,71,-1.0
2.5,2.5,5,27,4.5
2.5,2.5,6,52,7.5
2.5,2.5,7,59,-6.5
2.5,2.5,8,57,2.5
2.5,2.5,9,72,-5.5
2.5,2.5,10,56,3.5
2.5,2.5,11,73,-20.5
2.5,2.5,12,50,-15.0
2.5,2.5,13,40,9.0
2.5,2.5,14,74,13.5
2.5,2.5,15,57,-8.0
2.5,2.5,16,73,14.5
2.5,2.5,17,52,4.0
2.5,2.5,18,54,-1.5
2.5,2.5,19,57,-15.0
2.5,2.5,20,74,-11.0
2.5,2.5,21,17,7.5
2.5,2.5,22,33,12.5
2.5,2.5,23,45,0.5
2.5,3.0,0,40,4.0
2.5,3.0,1,45,-5.0
2.5,3.0,2,65,-1.0
2.5,3.0,3,44,4.0
2.5,3.0,4,71,1.0
2.5,3.0,5,27,5.0
2.5,3.0,6,52,8.0
2.5,3.0,7,59,-11.0
2.5,3.0,8,57,-5.0
2.5,3.0,9,72,0.0
2.5,3.0,10,56,8.0
2.5,3.0,11,73,-21.0
2.5,3.0,12,50,-18.0
2.5,3.0,13,40,16.0
2.5,3.0,14,74,14.0
2.5,3.0,15,57,-5.0
2.5,3.0,16,73,7.0
2.5,3.0,17,52,8.0
2.5,3.0,18,54,2.0
2.5,3.0,19,57,-9.0
2.5,3.0,20,74,-10.0
2.5,3.0,21,17,7.0
2.5,3.0,22,33,15.0
2.5,3.0,23,45,-1.0
3.0,0.5,0,40,5.0
3.0,0.5,1,45,1.5
3.0,0.5,2,65,-14.0
3.0,0.5,3,44,-9.5
3.0,0.5,4,71,-0.5
3.0,0.5,5,27,3.0
3.0,0.5,6,52,-2.5
3.0,0.5,7,59,-3.5
3.0,0.5,8,57,7.5
3.0,0.5,9,72,-9.0
3.0,0.5,10,56,-3.5
3.0,0.5,11,73,-4.0
3.0,0.5,12,50,-6.5
3.0,0.5,13,40,0.5
3.0,0.5,14,74,5.5
3.0,0.5,15,57,-3.0
3.0,0.5,16,73,3.5
3.0,0.5,17,52,-2.5
3.0,0.5,18,54,1.5
3.0,0.5,19,57,-10.5
3.0,0.5,20,74,8.5
3.0,0.5,21,17,-2.0
3.0,0.5,22,33,1.5
3.0,0.5,23,45,-7.5
3.0,0.75,0,40,3.75
3.0,0.75,1,45,-3.0
3.0,0.75,2,65,-10.75
3.0,0.75,3,44,-7.25
3.0,0.75,4,71,2.5
3.0,0.75,5,27,2.75
3.0,0.75,6,52,-1.25
3.0,0.75,7,59,-1.25
3.0,0.75,8,57,9.5
3.0,0.75,9,72,-12.5
3.0,0.75,10,56,-8.75
3.0,0.75,11,73,-11.75
3.0,0.75,12,50,-11.5
3.0,0.75,13,40,0.25
3.0,0.75,14,74,11.75
3.0,0.75,15,57,-1.0
3.0,0.75,16,73,2.25
3.0,0.75,17,52,-4.75
3.0,0.75,18,54,7.25
3.0,0.75,19,57,-18.5
3.0,0.75,20,74,6.5
3.0,0.75,21,17,0.5
3.0,0.75,22,33,7.25
3.0,0.75,23,45,-10.0
3.0,1.0,0,40,4.0
3.0,1.0,1,45,1.0
3.0,1.0,2,65,-11.0
3.0,1.0,3,44,-4.0
3.0,1.0,4,71,7.0
3.0,1.0,5,27,7.0
3.0,1.0,6,52,0.0
3.0,1.0,7,59,-3.0
3.0,1.0,8,57,9.0
3.0,1.0,9,72,-14.0
3.0,1.0,10,56,-10.0
3.0,1.0,11,73,-17.0
3.0,1.0,12,50,-10.0
3.0,1.0,13,40,2.0
3.0,1.0,14,74,12.0
3.0,1.0,15,57,3.0
3.0,1.0,16,73,-5.0
3.0,1.0,17,52,-2.0
3.0,1.0,18,54,2.0
3.0,1.0,19,57,-15.0
3.0,1.0,20,74,4.0
3.0,1.0,21,17,3.0
3.0,1.0,22,33,3.0
3.0,1.0,23,45,-9.0
3.0,1.25,0,40,2.75
3.0,1.25,1,45,0.0
3.0,1.25,2,65,-11.0
3.0,1.25,3,44,-1.25
3.0,1.25,4,71,3.25
3.0,1.25,5,27,4.5
3.0,1.25,6,52,6.5
3.0,1.25,7,59,-2.75
3.0,1.25,8,57,6.0
3.0,1.25,9,72,-13.5
3.0,1.25,10,56,-6.5
3.0,1.25,11,73,-14.5
3.0,1.25,12,50,-14.0
3.0,1.25,13,40,5.0
3.0,1.25,14,74,13.75
3.0,1.25,15,57,6.0
3.0,1.25,16,73,-3.25
3.0,1.25,17,52,-0.25
3.0,1.25,18,54,2.25
3.0,1.25,19,57,-12.0
3.0,1.25,20,74,-2.0
3.0,1.25,21,17,3.25
3.0,1.25,22,33,5.25
3.0,1.25,23,45,-6.75
3.0,1.5,0,40,5.0
3.0,1.5,1,45,0.0
3.0,1.5,2,65,-7.5
3.0,1.5,3,44,-1.5
3.0,1.5,4,71,6.5
3.0,1.5,5,27,8.0
3.0,1.5,6,52,13.0
3.0,1.5,7,59,-1.5
3.0,1.5,8,57,8.0
3.0,1.5,9,72,-17.0
3.0,1.5,10,56,-3.5
3.0,1.5,11,73,-10.5
3.0,1.5,12,50,-15.0
3.0,1.5,13,40,10.0
3.0,1.5,14,74,11.0
3.0,1.5,15,57,0.5
3.0,1.5,16,73,4.5
3.0,1.5,17,52,0.5
3.0,1.5,18,54,-1.5
3.0,1.5,19,57,-17.0
3.0,1.5,20,74,-9.0
3.0,1.5,21,17,5.5
3.0,1.5,22,33,4.5
3.0,1.5,23,45,-2.5
3.0,2.0,0,40,2.0
3.0,2.0,1,45,-6.0
3.0,2.0,2,65,-2.0
3.0,2.0,3,44,4.0
3.0,2.0,4,71,4.0
3.0,2.0,5,27,9.0
3.0,2.0,6,52,8.0
3.0,2.0,7,59,-5.0
3.0,2.0,8,57,12.0
3.0,2.0,9,72,-12.0
3.0,2.0,10,56,7.0
3.0,2.0,11,73,-16.0
3.0,2.0,12,50,-17.0
3.0,2.0,13,40,17.0
3.0,2.0,14,74,10.0
3.0,2.0,15,57,-6.0
3.0,2.0,16,73,11.0
3.0,2.0,17,52,8.0
3.0,2.0,18,54,-3.0
3.0,2.0,19,57,-18.0
3.0,2.0,20,74,-11.0
3.0,2.0,21,17,4.0
3.0,2.0,22,33,9.0
3.0,2.0,23,45,3.0
3.0,2.5,0,40,2.0
3.0,2.5,1,45,-3.0
3.0,2.5,2,65,-2.0
3.0,2.5,3,44,1.5
3.0,2.5,4,71,9.5
3.0,2.5,5,27,11.5
3.0,2.5,6,52,11.0
3.0,2.5,7,59,-6.5
3.0,2.5,8,57,9.5
3.0,2.5,9,72,-5.5
3.0,2.5,10,56,17.5
3.0,2.5,11,73,-17.0
3.0,2.5,12,50,-15.0
3.0,2.5,13,40,19.5
3.0,2.5,14,74,6.5
3.0,2.5,15,57,-1.0
3.0,2.5,16,73,7.5
3.0,2.5,17,52,14.5
3.0,2.5,18,54,2.0
3.0,2.5,19,57,-11.5
3.0,2.5,20,74,-11.0
3.0,2.5,21,17,4.0
3.0,2.5,22,33,12.5
3.0,2.5,23,45,-3.0
3.0,3.0,0,40,8.0
3.0,3.0,1,45,-1.0
3.0,3.0,2,65,-17.0
3.0,3.0,3,44,8.0
3.0,3.0,4,71,5.0
3.0,3.0,5,27,17.0
3.0,3.0,6,52,12.0
3.0,3.0,7,59,-7.0
3.0,3.0,8,57,7.0
3.0,3.0,9,72,-20.0
3.0,3.0,10,56,20.0
3.0,3.0,11,73,-13.0
3.0,3.0,12,50,-14.0
3.0,3.0,13,40,28.0
3.0,3.0,14,74,2.0
3.0,3.0,15,57,3.0
3.0,3.0,16,73,11.0
3.0,3.0,17,52,20.0
3.0,3.0,18,54,2.0
3.0,3.0,19,57,-5.0
3.0,3.0,20,74,-6.0
3.0,3.0,21,17,3.0
3.0,3.0,22,33,11.0
3.0,3.0,23,45,-5.0
3.5,0.5,0,40,3.5
3.5,0.5,1,45,0.0
3.5,0.5,2,65,-12.5
3.5,0.5,3,44,-2.0
3.5,0.5,4,71,-0.5
3.5,0.5,5,27,1.5
3.5,0.5,6,52,-1.0
3.5,0.5,7,59,-3.5
3.5,0.5,8,57,9.0
3.5,0.5,9,72,3.0
3.5,0.5,10,56,-0.5
3.5,0.5,11,73,-10.0
3.5,0.5,12,50,-6.5
3.5,0.5,13,40,-2.5
3.5,0.5,14,74,7.0
3.5,0.5,15,57,-1.5
3.5,0.5,16,73,0.5
3.5,0.5,17,52,-2.5
3.5,0.5,18,54,1.5
3.5,0.5,19,57,-9.0
3.5,0.5,20,74,8.5
3.5,0.5,21,17,-2.0
3.5,0.5,22,33,1.5
3.5,0.5,23,45,-6.0
3.5,0.75,0,40,5.5
3.5,0.75,1,45,0.5
3.5,0.75,2,65,-10.75
3.5,0.75,3,44,1.5
3.5,0.75,4,71,7.75
3.5,0.75,5,27,4.5
3.5,0.75,6,52,0.5
3.5,0.75,7,59,-4.75
3.5,0.75,8,57,9.5
3.5,0.75,9,72,-2.0
3.5,0.75,10,56,-3.5
3.5,0.75,11,73,-13.5
3.5,0.75,12,50,-9.75
3.5,0.75,13,40,2.0
3.5,0.75,14,74,13.5
3.5,0.75,15,57,6.0
3.5,0.75,16,73,2.25
3.5,0.75,17,52,-4.75
3.5,0.75,18,54,3.75
3.5,0.75,19,57,-13.25
3.5,0.75,20,74,13.5
3.5,0.75,21,17,0.5
3.5,0.75,22,33,7.25
3.5,0.75,23,45,-4.75
3.5,1.0,0,40,2.0
3.5,1.0,1,45,5.0
3.5,1.0,2,65,-13.0
3.5,1.0,3,44,6.0
3.5,1.0,4,71,3.0
3.5,1.0,5,27,5.0
3.5,1.0,6,52,6.0
3.5,1.0,7,59,-7.0
3.5,1.0,8,57,3.0
3.5,1.0,9,72,0.0
3.5,1.0,10,56,-4.0
3.5,1.0,11,73,-11.0
3.5,1.0,12,50,-10.0
3.5,1.0,13,40,2.0
3.5,1.0,14,74,8.0
3.5,1.0,15,57,9.0
3.5,1.0,16,73,1.0
3.5,1.0,17,52,0.0
3.5,1.0,18,54,2.0
3.5,1.0,19,57,-9.0
3.5,1.0,20,74,2.0
3.5,1.0,21,17,3.0
3.5,1.0,22,33,1.0
3.5,1.0,23,45,-3.0
3.5,1.25,0,40,2.75
3.5,1.25,1,45,2.25
3.5,1.25,2,65,-8.75
3.5,1.25,3,44,7.75
3.5,1.25,4,71,5.5
3.5,1.25,5,27,9.0
3.5,1.25,6,52,13.25
3.5,1.25,7,59,-5.0
3.5,1.25,8,57,6.0
3.5,1.25,9,72,6.75
3.5,1.25,10,56,-2.0
3.5,1.25,11,73,-7.75
3.5,1.25,12,50,-14.0
3.5,1.25,13,40,7.25
3.5,1.25,14,74,7.0
3.5,1.25,15,57,6.0
3.5,1.25,16,73,5.75
3.5,1.25,17,52,-0.25
3.5,1.25,18,54,2.25
3.5,1.25,19,57,-14.25
3.5,1.25,20,74,-6.5
3.5,1.25,21,17,3.25
3.5,1.25,22,33,0.75
3.5,1.25,23,45,0.0
3.5,1.5,0,40,0.0
3.5,1.5,1,45,0.0
3.5,1.5,2,65,-5.0
3.5,1.5,3,44,13.5
3.5,1.5,4,71,1.5
3.5,1.5,5,27,10.5
3.5,1.5,6,52,13.0
3.5,1.5,7,59,-6.5
3.5,1.5,8,57,10.5
3.5,1.5,9,72,-4.5
3.5,1.5,10,56,4.0
3.5,1.5,11,73,-13.0
3.5,1.5,12,50,-17.5
3.5,1.5,13,40,7.5
3.5,1.5,14,74,3.5
3.5,1.5,15,57,5.5
3.5,1.5,16,73,14.5
3.5,1.5,17,52,3.0
3.5,1.5,18,54,6.0
3.5,1.5,19,57,-17.0
3.5,1.5,20,74,-14.0
3.5,1.5,21,17,3.0
3.5,1.5,22,33,4.5
3.5,1.5,23,45,5.0
3.5,2.0,0,40,-1.0
3.5,2.0,1,45,0.0
3.5,2.0,2,65,-2.0
3.5,2.0,3,44,16.0
3.5,2.0,4,71,7.0
3.5,2.0,5,27,12.0
3.5,2.0,6,52,8.0
3.5,2.0,7,59,-5.0
3.5,2.0,8,57,9.0
3.5,2.0,9,72,3.0
3.5,2.0,10,56,13.0
3.5,2.0,11,73,-16.0
3.5,2.0,12,50,-11.0
3.5,2.0,13,40,11.0
3.5,2.0,14,74,-2.0
3.5,2.0,15,57,6.0
3.5,2.0,16,73,17.0
3.5,2.0,17,52,11.0
3.5,2.0,18,54,6.0
3.5,2.0,19,57,-15.0
3.5,2.0,20,74,-5.0
3.5,2.0,21,17,1.0
3.5,2.0,22,33,6.0
3.5,2.0,23,45,3.0
3.5,2.5,0,40,5.5
3.5,2.5,1,45,7.5
3.5,2.5,2,65,-9.0
3.5,2.5,3,44,15.5
3.5,2.5,4,71,16.5
3.5,2.5,5,27,15.0
3.5,2.5,6,52,11.0
3.5,2.5,7,59,-10.0
3.5,2.5,8,57,-1.0
3.5,2.5,9,72,-5.5
3.5,2.5,10,56,21.0
3.5,2.5,11,73,-13.5
3.5,2.5,12,50,-11.5
3.5,2.5,13,40,19.5
3.5,2.5,14,74,6.5
3.5,2.5,15,57,13.0
3.5,2.5,16,73,18.0
3.5,2.5,17,52,18.0
3.5,2.5,18,54,2.0
3.5,2.5,19,57,-11.5
3.5,2.5,20,74,-4.0
3.5,2.5,21,17,0.5
3.5,2.5,22,33,5.5
3.5,2.5,23,45,4.0
3.5,3.0,0,40,12.0
3.5,3.0,1,45,-9.0
3.5,3.0,2,65,-33.0
3.5,3.0,3,44,24.0
3.5,3.0,4,71,9.0
3.5,3.0,5,27,21.0
3.5,3.0,6,52,12.0
3.5,3.0,7,59,-3.0
3.5,3.0,8,57,7.0
3.5,3.0,9,72,-8.0
3.5,3.0,10,56,20.0
3.5,3.0,11,73,-5.0
3.5,3.0,12,50,-10.0
3.5,3.0,13,40,24.0
3.5,3.0,14,74,6.0
3.5,3.0,15,57,3.0
3.5,3.0,16,73,15.0
3.5,3.0,17,52,16.0
3.5,3.0,18,54,10.0
3.5,3.0,19,57,-13.0
3.5,3.0,20,74,-6.0
3.5,3.0,21,17,3.0
3.5,3.0,22,33,-1.0
3.5,3.0,23,45,7.0
4.0,0.5,0,40,3.5
4.0,0.5,1,45,-1.5
4.0,0.5,2,65,-11.0
4.0,0.5,3,44,-0.5
4.0,0.5,4,71,1.0
4.0,0.5,5,27,3.0
4.0,0.5,6,52,-2.5
4.0,0.5,7,59,-5.0
4.0,0.5,8,57,6.0
4.0,0.5,9,72,0.0
4.0,0.5,10,56,-6.5
4.0,0.5,11,73,-11.5
4.0,0.5,12,50,-6.5
4.0,0.5,13,40,-2.5
4.0,0.5,14,74,14.5
4.0,0.5,15,57,0.0
4.0,0.5,16,73,3.5
4.0,0.5,17,52,-7.0
4.0,0.5,18,54,1.5
4.0,0.5,19,57,-13.5
4.0,0.5,20,74,4.0
4.0,0.5,21,17,1.0
4.0,0.5,22,33,6.0
4.0,0.5,23,45,-3.0
4.0,0.75,0,40,7.25
4.0,0.75,1,45,2.25
4.0,0.75,2,65,-12.5
4.0,0.75,3,44,5.0
4.0,0.75,4,71,6.0
4.0,0.75,5,27,8.0
4.0,0.75,6,52,0.5
4.0,0.75,7,59,-3.0
4.0,0.75,8,57,4.25
4.0,0.75,9,72,-0.25
4.0,0.75,10,56,-3.5
4.0,0.75,11,73,-11.75
4.0,0.75,12,50,-2.75
4.0,0.75,13,40,0.25
4.0,0.75,14,74,13.5
4.0,0.75,15,57,6.0
4.0,0.75,16,73,-1.25
4.0,0.75,17,52,-4.75
4.0,0.75,18,54,-1.5
4.0,0.75,19,57,-11.5
4.0,0.75,20,74,1.25
4.0,0.75,21,17,2.25
4.0,0.75,22,33,3.75
4.0,0.75,23,45,-1.25
4.0,1.0,0,40,6.0
4.0,1.0,1,45,-1.0
4.0,1.0,2,65,-11.0
4.0,1.0,3,44,8.0
4.0,1.0,4,71,1.0
4.0,1.0,5,27,9.0
4.0,1.0,6,52,8.0
4.0,1.0,7,59,-1.0
4.0,1.0,8,57,5.0
4.0,1.0,9,72,4.0
4.0,1.0,10,56,-2.0
4.0,1.0,11,73,-5.0
4.0,1.0,12,50,-8.0
4.0,1.0,13,40,4.0
4.0,1.0,14,74,6.0
4.0,1.0,15,57,5.0
4.0,1.0,16,73,3.0
4.0,1.0,17,52,-4.0
4.0,1.0,18,54,-4.0
4.0,1.0,19,57,-11.0
4.0,1.0,20,74,-6.0
4.0,1.0,21,17,1.0
4.0,1.0,22,33,5.0
4.0,1.0,23,45,3.0
4.0,1.25,0,40,7.25
4.0,1.25,1,45,0.0
4.0,1.25,2,65,-4.25
4.0,1.25,3,44,14.5
4.0,1.25,4,71,-1.25
4.0,1.25,5,27,13.5
4.0,1.25,6,52,8.75
4.0,1.25,7,59,-2.75
4.0,1.25,8,57,10.5
4.0,1.25,9,72,0.0
4.0,1.25,10,56,2.5
4.0,1.25,11,73,-7.75
4.0,1.25,12,50,-9.5
4.0,1.25,13,40,7.25
4.0,1.25,14,74,7.0
4.0,1.25,15,57,1.5
4.0,1.25,16,73,10.25
4.0,1.25,17,52,-2.5
4.0,1.25,18,54,0.0
4.0,1.25,19,57,-21.0
4.0,1.25,20,74,-15.5
4.0,1.25,21,17,1.0
4.0,1.25,22,33,7.5
4.0,1.25,23,45,6.75
4.0,1.5,0,40,7.5
4.0,1.5,1,45,-2.5
4.0,1.5,2,65,-2.5
4.0,1.5,3,44,18.5
4.0,1.5,4,71,1.5
4.0,1.5,5,27,15.5
4.0,1.5,6,52,5.5
4.0,1.5,7,59,-1.5
4.0,1.5,8,57,10.5
4.0,1.5,9,72,3.0
4.0,1.5,10,56,6.5
4.0,1.5,11,73,-13.0
4.0,1.5,12,50,-7.5
4.0,1.5,13,40,10.0
4.0,1.5,14,74,8.5
4.0,1.5,15,57,0.5
4.0,1.5,16,73,12.0
4.0,1.5,17,52,3.0
4.0,1.5,18,54,-4.0
4.0,1.5,19,57,-17.0
4.0,1.5,20,74,-14.0
4.0,1.5,21,17,0.5
4.0,1.5,22,33,9.5
4.0,1.5,23,45,10.0
4.0,2.0,0,40,11.0
4.0,2.0,1,45,3.0
4.0,2.0,2,65,-2.0
4.0,2.0,3,44,13.0
4.0,2.0,4,71,10.0
4.0,2.0,5,27,21.0
4.0,2.0,6,52,8.0
4.0,2.0,7,59,-8.0
4.0,2.0,8,57,3.0
4.0,2.0,9,72,9.0
4.0,2.0,10,56,16.0
4.0,2.0,11,73,-10.0
4.0,2.0,12,50,-5.0
4.0,2.0,13,40,14.0
4.0,2.0,14,74,4.0
4.0,2.0,15,57,6.0
4.0,2.0,16,73,14.0
4.0,2.0,17,52,8.0
4.0,2.0,18,54,-3.0
4.0,2.0,19,57,-15.0
4.0,2.0,20,74,-8.0
4.0,2.0,21,17,1.0
4.0,2.0,22,33,3.0
4.0,2.0,23,45,3.0
4.0,2.5,0,40,19.5
4.0,2.5,1,45,-6.5
4.0,2.5,2,65,-19.5
4.0,2.5,3,44,22.5
4.0,2.5,4,71,9.5
4.0,2.5,5,27,29.0
4.0,2.5,6,52,11.0
4.0,2.5,7,59,-3.0
4.0,2.5,8,57,2.5
4.0,2.5,9,72,-2.0
4.0,2.5,10,56,17.5
4.0,2.5,11,73,-6.5
4.0,2.5,12,50,-1.0
4.0,2.5,13,40,19.5
4.0,2.5,14,74,-0.5
4.0,2.5,15,57,6.0
4.0,2.5,16,73,14.5
4.0,2.5,17,52,7.5
4.0,2.5,18,54,2.0
4.0,2.5,19,57,-11.5
4.0,2.5,20,74,-7.5
4.0,2.5,21,17,0.5
4.0,2.5,22,33,-1.5
4.0,2.5,23,45,4.0
4.0,3.0,0,40,24.0
4.0,3.0,1,45,-13.0
4.0,3.0,2,65,-25.0
4.0,3.0,3,44,20.0
4.0,3.0,4,71,13.0
4.0,3.0,5,27,29.0
4.0,3.0,6,52,12.0
4.0,3.0,7,59,-3.0
4.0,3.0,8,57,7.0
4.0,3.0,9,72,8.0
4.0,3.0,10,56,24.0
4.0,3.0,11,73,-5.0
4.0,3.0,12,50,6.0
4.0,3.0,13,40,12.0
4.0,3.0,14,74,10.0
4.0,3.0,15,57,3.0
4.0,3.0,16,73,23.0
4.0,3.0,17,52,8.0
4.0,3.0,18,54,2.0
4.0,3.0,19,57,-17.0
4.0,3.0,20,74,-6.0
4.0,3.0,21,17,3.0
4.0,3.0,22,33,-9.0
4.0,3.0,23,45,11.0
5.0,0.5,0,40,3.5
5.0,0.5,1,45,-4.5
5.0,0.5,2,65,-12.5
5.0,0.5,3,44,-0.5
5.0,0.5,4,71,7.0
5.0,0.5,5,27,6.0
5.0,0.5,6,52,-1.0
5.0,0.5,7,59,-5.0
5.0,0.5,8,57,6.0
5.0,0.5,9,72,0.0
5.0,0.5,10,56,-3.5
5.0,0.5,11,73,-7.0
5.0,0.5,12,50,-8.0
5.0,0.5,13,40,0.5
5.0,0.5,14,74,13.0
5.0,0.5,15,57,3.0
5.0,0.5,16,73,3.5
5.0,0.5,17,52,-2.5
5.0,0.5,18,54,1.5
5.0,0.5,19,57,-9.0
5.0,0.5,20,74,11.5
5.0,0.5,21,17,-0.5
5.0,0.5,22,33,10.5
5.0,0.5,23,45,-3.0
5.0,0.75,0,40,5.5
5.0,0.75,1,45,0.5
5.0,0.75,2,65,-17.75
5.0,0.75,3,44,5.0
5.0,0.75,4,71,4.25
5.0,0.75,5,27,9.75
5.0,0.75,6,52,5.75
5.0,0.75,7,59,-4.75
5.0,0.75,8,57,0.75
5.0,0.75,9,72,5.0
5.0,0.75,10,56,-3.5
5.0,0.75,11,73,-3.0
5.0,0.75,12,50,-11.5
5.0,0.75,13,40,2.0
5.0,0.75,14,74,10.0
5.0,0.75,15,57,4.25
5.0,0.75,16,73,5.75
5.0,0.75,17,52,-1.25
5.0,0.75,18,54,-1.5
5.0,0.75,19,57,-6.25
5.0,0.75,20,74,3.0
5.0,0.75,21,17,0.5
5.0,0.75,22,33,9.0
5.0,0.75,23,45,2.25
5.0,1.0,0,40,4.0
5.0,1.0,1,45,-1.0
5.0,1.0,2,65,-11.0
5.0,1.0,3,44,10.0
5.0,1.0,4,71,5.0
5.0,1.0,5,27,15.0
5.0,1.0,6,52,8.0
5.0,1.0,7,59,-7.0
5.0,1.0,8,57,5.0
5.0,1.0,9,72,6.0
5.0,1.0,10,56,2.0
5.0,1.0,11,73,-5.0
5.0,1.0,12,50,-14.0
5.0,1.0,13,40,6.0
5.0,1.0,14,74,6.0
5.0,1.0,15,57,-1.0
5.0,1.0,16,73,17.0
5.0,1.0,17,52,0.0
5.0,1.0,18,54,2.0
5.0,1.0,19,57,-13.0
5.0,1.0,20,74,-4.0
5.0,1.0,21,17,1.0
5.0,1.0,22,33,11.0
5.0,1.0,23,45,7.0
5.0,1.25,0,40,5.0
5.0,1.25,1,45,-2.25
5.0,1.25,2,65,-11.0
5.0,1.25,3,44,14.5
5.0,1.25,4,71,10.0
5.0,1.25,5,27,18.0
5.0,1.25,6,52,6.5
5.0,1.25,7,59,-5.0
5.0,1.25,8,57,6.0
5.0,1.25,9,72,11.25
5.0,1.25,10,56,4.75
5.0,1.25,11,73,-12.25
5.0,1.25,12,50,-11.75
5.0,1.25,13,40,5.0
5.0,1.25,14,74,7.0
5.0,1.25,15,57,1.5
5.0,1.25,16,73,21.5
5.0,1.25,17,52,4.25
5.0,1.25,18,54,0.0
5.0,1.25,19,57,-7.5
5.0,1.25,20,74,-4.25
5.0,1.25,21,17,1.0
5.0,1.25,22,33,9.75
5.0,1.25,23,45,6.75
5.0,1.5,0,40,7.5
5.0,1.5,1,45,0.0
5.0,1.5,2,65,-10.0
5.0,1.5,3,44,8.5
5.0,1.5,4,71,16.5
5.0,1.5,5,27,20.5
5.0,1.5,6,52,8.0
5.0,1.5,7,59,-9.0
5.0,1.5,8,57,-2.0
5.0,1.5,9,72,15.5
5.0,1.5,10,56,9.0
5.0,1.5,11,73,-10.5
5.0,1.5,12,50,-10.0
5.0,1.5,13,40,10.0
5.0,1.5,14,74,3.5
5.0,1.5,15,57,5.5
5.0,1.5,16,73,22.0
5.0,1.5,17,52,8.0
5.0,1.5,18,54,1.0
5.0,1.5,19,57,-4.5
5.0,1.5,20,74,-4.0
5.0,1.5,21,17,0.5
5.0,1.5,22,33,7.0
5.0,1.5,23,45,2.5
5.0,2.0,0,40,17.0
5.0,2.0,1,45,-6.0
5.0,2.0,2,65,-26.0
5.0,2.0,3,44,16.0
5.0,2.0,4,71,19.0
5.0,2.0,5,27,30.0
5.0,2.0,6,52,8.0
5.0,2.0,7,59,-8.0
5.0,2.0,8,57,-3.0
5.0,2.0,9,72,-3.0
5.0,2.0,10,56,10.0
5.0,2.0,11,73,-7.0
5.0,2.0,12,50,-8.0
5.0,2.0,13,40,17.0
5.0,2.0,14,74,-5.0
5.0,2.0,15,57,6.0
5.0,2.0,16,73,23.0
5.0,2.0,17,52,5.0
5.0,2.0,18,54,6.0
5.0,2.0,19,57,-3.0
5.0,2.0,20,74,-5.0
5.0,2.0,21,17,1.0
5.0,2.0,22,33,0.0
5.0,2.0,23,45,0.0
5.0,2.5,0,40,9.0
5.0,2.5,1,45,-6.5
5.0,2.5,2,65,-30.0
5.0,2.5,3,44,15.5
5.0,2.5,4,71,23.5
5.0,2.5,5,27,29.0
5.0,2.5,6,52,14.5
5.0,2.5,7,59,-6.5
5.0,2.5,8,57,2.5
5.0,2.5,9,72,5.0
5.0,2.5,10,56,10.5
5.0,2.5,11,73,-6.5
5.0,2.5,12,50,-8.0
5.0,2.5,13,40,16.0
5.0,2.5,14,74,3.0
5.0,2.5,15,57,6.0
5.0,2.5,16,73,25.0
5.0,2.5,17,52,7.5
5.0,2.5,18,54,12.5
5.0,2.5,19,57,-18.5
5.0,2.5,20,74,-11.0
5.0,2.5,21,17,4.0
5.0,2.5,22,33,-8.5
5.0,2.5,23,45,7.5
5.0,3.0,0,40,0.0
5.0,3.0,1,45,-9.0
5.0,3.0,2,65,-29.0
5.0,3.0,3,44,8.0
5.0,3.0,4,71,25.0
5.0,3.0,5,27,25.0
5.0,3.0,6,52,4.0
5.0,3.0,7,59,-3.0
5.0,3.0,8,57,-1.0
5.0,3.0,9,72,8.0
5.0,3.0,10,56,16.0
5.0,3.0,11,73,-9.0
5.0,3.0,12,50,-10.0
5.0,3.0,13,40,20.0
5.0,3.0,14,74,-2.0
5.0,3.0,15,57,11.0
5.0,3.0,16,73,23.0
5.0,3.0,17,52,12.0
5.0,3.0,18,54,18.0
5.0,3.0,19,57,-21.0
5.0,3.0,20,74,-22.0
5.0,3.0,21,17,3.0
5.0,3.0,22,33,-5.0
5.0,3.0,23,45,15.0
