sl_atr,rr,hour,trades,total_r
3.5,2.0,0,37,2.0
3.5,2.0,1,41,1.0
3.5,2.0,2,57,3.0
3.5,2.0,3,42,12.0
3.5,2.0,4,62,1.0
3.5,2.0,5,25,8.0
3.5,2.0,6,46,5.0
3.5,2.0,7,55,-4.0
3.5,2.0,8,54,6.0
3.5,2.0,9,68,4.0
3.5,2.0,10,46,5.0
3.5,2.0,11,68,-14.0
3.5,2.0,12,42,-6.0
3.5,2.0,13,31,11.0
3.5,2.0,14,69,-3.0
3.5,2.0,15,52,2.0
3.5,2.0,16,66,18.0
3.5,2.0,17,45,12.0
3.5,2.0,18,48,6.0
3.5,2.0,19,52,-16.0
3.5,2.0,20,69,-6.0
3.5,2.0,21,16,2.0
3.5,2.0,22,33,6.0
3.5,2.0,23,39,3.0
3.5,2.5,0,37,8.5
3.5,2.5,1,41,8.0
3.5,2.5,2,57,-4.5
3.5,2.5,3,42,10.5
3.5,2.5,4,62,8.0
3.5,2.5,5,25,10.0
3.5,2.5,6,46,6.5
3.5,2.5,7,55,-9.5
3.5,2.5,8,54,-1.5
3.5,2.5,9,68,-5.0
3.5,2.5,10,46,10.0
3.5,2.5,11,68,-12.0
3.5,2.5,12,42,-7.0
3.5,2.5,13,31,18.0
3.5,2.5,14,69,4.5
3.5,2.5,15,52,7.5
3.5,2.5,16,66,18.0
3.5,2.5,17,45,18.0
3.5,2.5,18,48,1.0
3.5,2.5,19,52,-13.5
3.5,2.5,20,69,-6.0
3.5,2.5,21,16,1.5
3.5,2.5,22,33,5.5
3.5,2.5,23,39,3.0
3.5,3.0,0,37,15.0
3.5,3.0,1,41,-9.0
3.5,3.0,2,57,-25.0
3.5,3.0,3,42,18.0
3.5,3.0,4,62,6.0
3.5,3.0,5,25,15.0
3.5,3.0,6,46,10.0
3.5,3.0,7,55,-3.0
3.5,3.0,8,54,6.0
3.5,3.0,9,68,-4.0
3.5,3.0,10,46,10.0
3.5,3.0,11,68,-4.0
3.5,3.0,12,42,-6.0
3.5,3.0,13,31,25.0
3.5,3.0,14,69,3.0
3.5,3.0,15,52,4.0
3.5,3.0,16,66,18.0
3.5,3.0,17,45,15.0
3.5,3.0,18,48,8.0
3.5,3.0,19,52,-16.0
3.5,3.0,20,69,-9.0
3.5,3.0,21,16,4.0
3.5,3.0,22,33,-1.0
3.5,3.0,23,39,5.0
4.0,2.0,0,37,14.0
4.0,2.0,1,41,1.0
4.0,2.0,2,57,3.0
4.0,2.0,3,42,9.0
4.0,2.0,4,62,4.0
4.0,2.0,5,25,17.0
4.0,2.0,6,46,5.0
4.0,2.0,7,55,-7.0
4.0,2.0,8,54,0.0
4.0,2.0,9,68,10.0
4.0,2.0,10,46,5.0
4.0,2.0,11,68,-8.0
4.0,2.0,12,42,-3.0
4.0,2.0,13,31,14.0
4.0,2.0,14,69,0.0
4.0,2.0,15,52,2.0
4.0,2.0,16,66,15.0
4.0,2.0,17,45,9.0
4.0,2.0,18,48,-3.0
4.0,2.0,19,52,-16.0
4.0,2.0,20,69,-9.0
4.0,2.0,21,16,2.0
4.0,2.0,22,33,3.0
4.0,2.0,23,39,3.0
4.0,2.5,0,37,22.5
4.0,2.5,1,41,-9.5
4.0,2.5,2,57,-11.5
4.0,2.5,3,42,17.5
4.0,2.5,4,62,8.0
4.0,2.5,5,25,24.0
4.0,2.5,6,46,10.0
4.0,2.5,7,55,-2.5
4.0,2.5,8,54,2.0
4.0,2.5,9,68,2.0
4.0,2.5,10,46,6.5
4.0,2.5,11,68,-5.0
4.0,2.5,12,42,0.0
4.0,2.5,13,31,21.5
4.0,2.5,14,69,-2.5
4.0,2.5,15,52,4.0
4.0,2.5,16,66,18.0
4.0,2.5,17,45,7.5
4.0,2.5,18,48,1.0
4.0,2.5,19,52,-13.5
4.0,2.5,20,69,-9.5
4.0,2.5,21,16,1.5
4.0,2.5,22,33,-1.5
4.0,2.5,23,39,3.0
4.0,3.0,0,37,27.0
4.0,3.0,1,41,-17.0
4.0,3.0,2,57,-17.0
4.0,3.0,3,42,18.0
4.0,3.0,4,62,10.0
4.0,3.0,5,25,23.0
4.0,3.0,6,46,10.0
4.0,3.0,7,55,-3.0
4.0,3.0,8,54,6.0
4.0,3.0,9,68,12.0
4.0,3.0,10,46,14.0
4.0,3.0,11,68,-4.0
4.0,3.0,12,42,6.0
4.0,3.0,13,31,13.0
4.0,3.0,14,69,7.0
4.0,3.0,15,52,4.0
4.0,3.0,16,66,26.0
4.0,3.0,17,45,7.0
4.0,3.0,18,48,0.0
4.0,3.0,19,52,-20.0
4.0,3.0,20,69,-9.0
4.0,3.0,21,16,4.0
4.0,3.0,22,33,-9.0
4.0,3.0,23,39,9.0
5.0,1.25,0,37,8.0
5.0,1.25,1,41,-2.75
5.0,1.25,2,57,-5.25
5.0,1.25,3,42,12.0
5.0,1.25,4,62,7.75
5.0,1.25,5,25,15.5
5.0,1.25,6,46,1.25
5.0,1.25,7,55,-5.5
5.0,1.25,8,54,4.5
5.0,1.25,9,68,10.75
5.0,1.25,10,46,-1.0
5.0,1.25,11,68,-9.5
5.0,1.25,12,42,-8.25
5.0,1.25,13,31,7.25
5.0,1.25,14,69,5.25
5.0,1.25,15,52,-2.5
5.0,1.25,16,66,24.0
5.0,1.25,17,45,6.75
5.0,1.25,18,48,1.5
5.0,1.25,19,52,-7.0
5.0,1.25,20,69,-3.75
5.0,1.25,21,16,2.0
5.0,1.25,22,33,9.75
5.0,1.25,23,39,6.0
5.0,1.5,0,37,10.5
5.0,1.5,1,41,-1.0
5.0,1.5,2,57,-4.5
5.0,1.5,3,42,5.5
5.0,1.5,4,62,13.0
5.0,1.5,5,25,17.5
5.0,1.5,6,46,1.5
5.0,1.5,7,55,-7.5
5.0,1.5,8,54,-4.0
5.0,1.5,9,68,14.5
5.0,1.5,10,46,1.5
5.0,1.5,11,68,-8.0
5.0,1.5,12,42,-7.0
5.0,1.5,13,31,11.5
5.0,1.5,14,69,1.0
5.0,1.5,15,52,0.5
5.0,1.5,16,66,24.0
5.0,1.5,17,45,10.0
5.0,1.5,18,48,2.0
5.0,1.5,19,52,-4.5
5.0,1.5,20,69,-4.0
5.0,1.5,21,16,1.5
5.0,1.5,22,33,7.0
5.0,1.5,23,39,3.5
5.0,2.0,0,37,20.0
5.0,2.0,1,41,-8.0
5.0,2.0,2,57,-18.0
5.0,2.0,3,42,12.0
5.0,2.0,4,62,19.0
5.0,2.0,5,25,26.0
5.0,2.0,6,46,5.0
5.0,2.0,7,55,-7.0
5.0,2.0,8,54,-3.0
5.0,2.0,9,68,1.0
5.0,2.0,10,46,-1.0
5.0,2.0,11,68,-5.0
5.0,2.0,12,42,-6.0
5.0,2.0,13,31,20.0
5.0,2.0,14,69,-6.0
5.0,2.0,15,52,2.0
5.0,2.0,16,66,27.0
5.0,2.0,17,45,6.0
5.0,2.0,18,48,6.0
5.0,2.0,19,52,-4.0
5.0,2.0,20,69,-6.0
5.0,2.0,21,16,2.0
5.0,2.0,22,33,0.0
5.0,2.0,23,39,0.0
5.0,2.5,0,37,12.0
5.0,2.5,1,41,-9.5
5.0,2.5,2,57,-22.0
5.0,2.5,3,42,14.0
5.0,2.5,4,62,22.0
5.0,2.5,5,25,24.0
5.0,2.5,6,46,10.0
5.0,2.5,7,55,-6.0
5.0,2.5,8,54,2.0
5.0,2.5,9,68,9.0
5.0,2.5,10,46,3.0
5.0,2.5,11,68,-1.5
5.0,2.5,12,42,-7.0
5.0,2.5,13,31,18.0
5.0,2.5,14,69,1.0
5.0,2.5,15,52,4.0
5.0,2.5,16,66,28.5
5.0,2.5,17,45,7.5
5.0,2.5,18,48,11.5
5.0,2.5,19,52,-20.5
5.0,2.5,20,69,-13.0
5.0,2.5,21,16,5.0
5.0,2.5,22,33,-8.5
5.0,2.5,23,39,6.5
