sl_atr,rr,hour,trades,total_r
3.5,2.0,0,40,-1.0
3.5,2.0,1,45,0.0
3.5,2.0,3,44,16.0
3.5,2.0,4,71,7.0
3.5,2.0,5,27,12.0
3.5,2.0,6,52,8.0
3.5,2.0,8,57,9.0
3.5,2.0,9,72,3.0
3.5,2.0,10,56,13.0
3.5,2.0,12,50,-11.0
3.5,2.0,13,40,11.0
3.5,2.0,14,74,-2.0
3.5,2.0,15,57,6.0
3.5,2.0,16,73,17.0
3.5,2.0,17,52,11.0
3.5,2.0,18,54,6.0
3.5,2.0,21,17,1.0
3.5,2.0,22,33,6.0
3.5,2.0,23,45,3.0
3.5,2.5,0,40,5.5
3.5,2.5,1,45,7.5
3.5,2.5,3,44,15.5
3.5,2.5,4,71,16.5
3.5,2.5,5,27,15.0
3.5,2.5,6,52,11.0
3.5,2.5,8,57,-1.0
3.5,2.5,9,72,-5.5
3.5,2.5,10,56,21.0
3.5,2.5,12,50,-11.5
3.5,2.5,13,40,19.5
3.5,2.5,14,74,6.5
3.5,2.5,15,57,13.0
3.5,2.5,16,73,18.0
3.5,2.5,17,52,18.0
3.5,2.5,18,54,2.0
3.5,2.5,21,17,0.5
3.5,2.5,22,33,5.5
3.5,2.5,23,45,4.0
3.5,3.0,0,40,12.0
3.5,3.0,1,45,-9.0
3.5,3.0,3,44,24.0
3.5,3.0,4,71,9.0
3.5,3.0,5,27,21.0
3.5,3.0,6,52,12.0
3.5,3.0,8,57,7.0
3.5,3.0,9,72,-8.0
3.5,3.0,10,56,20.0
3.5,3.0,12,50,-10.0
3.5,3.0,13,40,24.0
3.5,3.0,14,74,6.0
3.5,3.0,15,57,3.0
3.5,3.0,16,73,15.0
3.5,3.0,17,52,16.0
3.5,3.0,18,54,10.0
3.5,3.0,21,17,3.0
3.5,3.0,22,33,-1.0
3.5,3.0,23,45,7.0
4.0,2.0,0,40,11.0
4.0,2.0,1,45,3.0
4.0,2.0,3,44,13.0
4.0,2.0,4,71,10.0
4.0,2.0,5,27,21.0
4.0,2.0,6,52,8.0
4.0,2.0,8,57,3.0
4.0,2.0,9,72,9.0
4.0,2.0,10,56,16.0
4.0,2.0,12,50,-5.0
4.0,2.0,13,40,14.0
4.0,2.0,14,74,4.0
4.0,2.0,15,57,6.0
4.0,2.0,16,73,14.0
4.0,2.0,17,52,8.0
4.0,2.0,18,54,-3.0
4.0,2.0,21,17,1.0
4.0,2.0,22,33,3.0
4.0,2.0,23,45,3.0
4.0,2.5,0,40,19.5
4.0,2.5,1,45,-6.5
4.0,2.5,3,44,22.5
4.0,2.5,4,71,9.5
4.0,2.5,5,27,29.0
4.0,2.5,6,52,11.0
4.0,2.5,8,57,2.5
4.0,2.5,9,72,-2.0
4.0,2.5,10,56,17.5
4.0,2.5,12,50,-1.0
4.0,2.5,13,40,19.5
4.0,2.5,14,74,-0.5
4.0,2.5,15,57,6.0
4.0,2.5,16,73,14.5
4.0,2.5,17,52,7.5
4.0,2.5,18,54,2.0
4.0,2.5,21,17,0.5
4.0,2.5,22,33,-1.5
4.0,2.5,23,45,4.0
4.0,3.0,0,40,24.0
4.0,3.0,1,45,-13.0
4.0,3.0,3,44,20.0
4.0,3.0,4,71,13.0
4.0,3.0,5,27,29.0
4.0,3.0,6,52,12.0
4.0,3.0,8,57,7.0
4.0,3.0,9,72,8.0
4.0,3.0,10,56,24.0
4.0,3.0,12,50,6.0
4.0,3.0,13,40,12.0
4.0,3.0,14,74,10.0
4.0,3.0,15,57,3.0
4.0,3.0,16,73,23.0
4.0,3.0,17,52,8.0
4.0,3.0,18,54,2.0
4.0,3.0,21,17,3.0
4.0,3.0,22,33,-9.0
4.0,3.0,23,45,11.0
5.0,1.25,0,40,5.0
5.0,1.25,1,45,-2.25
5.0,1.25,3,44,14.5
5.0,1.25,4,71,10.0
5.0,1.25,5,27,18.0
5.0,1.25,6,52,6.5
5.0,1.25,8,57,6.0
5.0,1.25,9,72,11.25
5.0,1.25,10,56,4.75
5.0,1.25,12,50,-11.75
5.0,1.25,13,40,5.0
5.0,1.25,14,74,7.0
5.0,1.25,15,57,1.5
5.0,1.25,16,73,21.5
5.0,1.25,17,52,4.25
5.0,1.25,18,54,0.0
5.0,1.25,21,17,1.0
5.0,1.25,22,33,9.75
5.0,1.25,23,45,6.75
5.0,1.5,0,40,7.5
5.0,1.5,1,45,0.0
5.0,1.5,3,44,8.5
5.0,1.5,4,71,16.5
5.0,1.5,5,27,20.5
5.0,1.5,6,52,8.0
5.0,1.5,8,57,-2.0
5.0,1.5,9,72,15.5
5.0,1.5,10,56,9.0
5.0,1.5,12,50,-10.0
5.0,1.5,13,40,10.0
5.0,1.5,14,74,3.5
5.0,1.5,15,57,5.5
5.0,1.5,16,73,22.0
5.0,1.5,17,52,8.0
5.0,1.5,18,54,1.0
5.0,1.5,21,17,0.5
5.0,1.5,22,33,7.0
5.0,1.5,23,45,2.5
5.0,2.0,0,40,17.0
5.0,2.0,1,45,-6.0
5.0,2.0,3,44,16.0
5.0,2.0,4,71,19.0
5.0,2.0,5,27,30.0
5.0,2.0,6,52,8.0
5.0,2.0,8,57,-3.0
5.0,2.0,9,72,-3.0
5.0,2.0,10,56,10.0
5.0,2.0,12,50,-8.0
5.0,2.0,13,40,17.0
5.0,2.0,14,74,-5.0
5.0,2.0,15,57,6.0
5.0,2.0,16,73,23.0
5.0,2.0,17,52,5.0
5.0,2.0,18,54,6.0
5.0,2.0,21,17,1.0
5.0,2.0,22,33,0.0
5.0,2.0,23,45,0.0
5.0,2.5,0,40,9.0
5.0,2.5,1,45,-6.5
5.0,2.5,3,44,15.5
5.0,2.5,4,71,23.5
5.0,2.5,5,27,29.0
5.0,2.5,6,52,14.5
5.0,2.5,8,57,2.5
5.0,2.5,9,72,5.0
5.0,2.5,10,56,10.5
5.0,2.5,12,50,-8.0
5.0,2.5,13,40,16.0
5.0,2.5,14,74,3.0
5.0,2.5,15,57,6.0
5.0,2.5,16,73,25.0
5.0,2.5,17,52,7.5
5.0,2.5,18,54,12.5
5.0,2.5,21,17,4.0
5.0,2.5,22,33,-8.5
5.0,2.5,23,45,7.5
